Wavelength (um) Half bin width (um) Transit depth (Rp/Rs)^2 Transit depth uncertainty
2.20238436 0.01731054 2.10246094E-02 5.13710713E-05
2.23671209 0.01711510 2.10374861E-02 4.81891227E-05
2.27065391 0.01692295 2.10410174E-02 5.13735283E-05
2.30421546 0.01673392 2.11056108E-02 5.04712994E-05
2.33740281 0.01654762 2.12653525E-02 4.86485405E-05
2.37022503 0.01636565 2.14618676E-02 4.97248466E-05
2.40268656 0.01618661 2.13521197E-02 5.11769952E-05
2.43479780 0.01601203 2.14982200E-02 5.04506667E-05
2.46656247 0.01583992 2.15634741E-02 5.11730177E-05
2.49799088 0.01567271 2.17258708E-02 5.45872837E-05
2.52908993 0.01550890 2.16765139E-02 5.78726376E-05
2.55986640 0.01534836 2.19637665E-02 5.87736116E-05
2.59032682 0.01519138 2.18735426E-02 5.86754806E-05
2.62047929 0.01503829 2.18951217E-02 5.78959698E-05
2.65033077 0.01488865 2.21398455E-02 5.83027344E-05
2.67988812 0.01474239 2.20467539E-02 5.91013839E-05
2.70915719 0.01459902 2.22354598E-02 6.01602926E-05
2.73814501 0.01445931 2.20816034E-02 6.26888465E-05
2.76685848 0.01432295 2.20603002E-02 6.30812383E-05
2.79530414 0.01418979 2.21050600E-02 6.58172390E-05
2.82348638 0.01405861 2.23523372E-02 6.68552989E-05
2.85141227 0.01393154 2.22105981E-02 6.83589436E-05
2.87908790 0.01380664 2.21468539E-02 7.02074553E-05
2.90651732 0.01368477 2.21063423E-02 7.20965485E-05
2.93370758 0.01356525 2.19782123E-02 7.31350599E-05
2.96066296 0.01344897 2.19119758E-02 7.54702503E-05
2.98738833 0.01333435 2.18918216E-02 7.34786004E-05
3.01388989 0.01322287 2.18549924E-02 7.62472037E-05
3.04017138 0.01311371 2.19426779E-02 7.59860339E-05
3.06623693 0.01300647 2.17994791E-02 7.63650395E-05
3.09209213 0.01290165 2.18118915E-02 7.79303066E-05
3.11774120 0.01279894 2.15659974E-02 7.84480126E-05
3.14318824 0.01269852 2.16856285E-02 8.23531629E-05
3.16843728 0.01260006 2.16583718E-02 8.19613216E-05
3.19349227 0.01250356 2.16186579E-02 8.31268719E-05
3.21835707 0.01240898 2.17012552E-02 8.33929752E-05
3.24303548 0.01231628 2.14759489E-02 8.58838374E-05
3.26753118 0.01222540 2.14281380E-02 8.52346441E-05
3.29184781 0.01213600 2.13377600E-02 8.67216619E-05
3.31598892 0.01204869 2.14361253E-02 8.87362653E-05
3.33995795 0.01196316 2.13762577E-02 9.00323144E-05
3.36375693 0.01187882 2.15924139E-02 9.24854615E-05
3.38738994 0.01179607 2.15372630E-02 9.21355057E-05
3.41086062 0.01171496 2.14176576E-02 9.46439274E-05
3.43417139 0.01163571 2.15005096E-02 9.54388600E-05
3.45732420 0.01155709 2.13985063E-02 9.53512672E-05
3.48032380 0.01148054 2.14936777E-02 9.81901535E-05
3.50317102 0.01140519 2.13576959E-02 9.80749737E-05
3.52586982 0.01133069 2.14750852E-02 9.99675045E-05
3.54842219 0.01125840 2.13817219E-02 1.00717576E-04
3.57083083 0.01118624 2.14206017E-02 1.02509131E-04
3.59309797 0.01111631 2.16000727E-02 1.03666125E-04
3.61522669 0.01104696 2.12819682E-02 1.04760590E-04
3.63721783 0.01097879 2.15024200E-02 1.06120173E-04
3.65907563 0.01091234 2.13695735E-02 1.06734008E-04
3.68080049 0.01084592 2.15275242E-02 1.12433986E-04
3.70239529 0.01078141 2.11606279E-02 1.12231289E-04
3.72386279 0.01071801 2.13109769E-02 1.12742674E-04
3.74520409 0.01065487 2.13335152E-02 1.13600195E-04
3.76642087 0.01059311 2.13221314E-02 1.16502043E-04
3.78751604 0.01053252 2.10484662E-02 1.16068366E-04
3.80849136 0.01047282 2.14313455E-02 1.17847938E-04
3.82934858 0.01041397 2.13298063E-02 1.22124946E-04
3.85008881 0.01035559 2.12725126E-02 1.22285350E-04
3.87071407 0.01029845 2.12285256E-02 1.24692771E-04
3.89122643 0.01024219 2.11908287E-02 1.25087078E-04
3.91162751 0.01018675 2.11892260E-02 1.28130947E-04
3.93191888 0.01013210 2.13230159E-02 1.29588380E-04
3.95210212 0.01007822 2.12478636E-02 1.33938938E-04
3.97217876 0.01002511 2.13293520E-02 1.31052894E-04
3.99215030 0.00997275 2.15432025E-02 1.32038985E-04
4.01201824 0.00992113 2.16602589E-02 1.35895419E-04
4.03178403 0.00987024 2.16532521E-02 1.36046827E-04
4.05144910 0.00982006 2.16109126E-02 1.35755735E-04
4.07101487 0.00977058 2.13964786E-02 1.38016056E-04
4.09048271 0.00972179 2.14404076E-02 1.41260809E-04
4.10985398 0.00967365 2.10708794E-02 1.45722553E-04
4.12912940 0.00962580 2.12726637E-02 1.43572379E-04
4.14831049 0.00957890 2.13636612E-02 1.44071609E-04
4.16739886 0.00953269 2.16283630E-02 1.45722650E-04
4.18639577 0.00948712 2.15227766E-02 1.46713822E-04
4.20530248 0.00944220 2.17746562E-02 1.50577582E-04
4.22411959 0.00939731 2.20915063E-02 1.50351263E-04
4.24284797 0.00935330 2.21680467E-02 1.51818033E-04
4.26148969 0.00931011 2.26160918E-02 1.53538395E-04
4.28004591 0.00926746 2.27314630E-02 1.54569880E-04
4.29851644 0.00922462 2.27228633E-02 1.56224587E-04
4.31690313 0.00918302 2.27947300E-02 1.59279176E-04
4.33520764 0.00914203 2.27830199E-02 1.60239455E-04
4.35342963 0.00910070 2.30043669E-02 1.64204157E-04
4.37157079 0.00906065 2.28970663E-02 1.68170212E-04
4.38963295 0.00902105 2.29148528E-02 1.69028009E-04
4.40761472 0.00898116 2.29152655E-02 1.72644060E-04
4.42551945 0.00894282 2.29802512E-02 1.73131263E-04
4.44334667 0.00890384 2.26345639E-02 1.75240817E-04
4.46109771 0.00886626 2.20503932E-02 1.74676635E-04
4.47877369 0.00882842 2.24652830E-02 1.78277233E-04
4.49637467 0.00879144 2.25057902E-02 1.78734085E-04
4.51390262 0.00875464 2.20405159E-02 1.81412410E-04
4.53135707 0.00871840 2.18181593E-02 1.83919157E-04
4.54874012 0.00868238 2.22352368E-02 1.88922895E-04
4.56605148 0.00864710 2.19753094E-02 1.90020241E-04
4.58759185 0.01290451 2.18955449E-02 1.57519146E-04
4.61329754 0.01282686 2.18113099E-02 1.62551324E-04
4.63884943 0.01275046 2.17345887E-02 1.60410359E-04
4.66424967 0.01267524 2.17106721E-02 1.62002060E-04
4.68950100 0.01260115 2.18405536E-02 1.64442596E-04
4.71460572 0.01252820 2.20017867E-02 1.68255950E-04
4.73956610 0.01245637 2.18826835E-02 1.72336022E-04
4.76438434 0.01238564 2.19101711E-02 1.69927539E-04
4.78906262 0.01231600 2.18944041E-02 1.70248912E-04
4.81360302 0.01224745 2.18938968E-02 1.77804759E-04
4.83800731 0.01217995 2.17137395E-02 1.85419198E-04
4.86227786 0.01211338 2.17906885E-02 1.82653475E-04
4.88641677 0.01204762 2.16831292E-02 1.80950533E-04
4.91042594 0.01198297 2.15451821E-02 1.89176516E-04
4.93430661 0.01191906 2.17209481E-02 1.90784201E-04
4.95806092 0.01185647 2.18262866E-02 1.91965062E-04
4.98169066 0.01179440 2.17097716E-02 1.92079796E-04
5.00519800 0.01173322 2.15523135E-02 1.98456455E-04
5.03246967 0.01555076 2.13669895E-02 1.73567507E-04
5.06343932 0.01544548 2.17728001E-02 1.77180285E-04
5.09420097 0.01534218 2.15302330E-02 1.88007131E-04
5.12475795 0.01524053 2.15717705E-02 1.84848914E-04
5.15511386 0.01514082 2.17123581E-02 1.90025853E-04
5.18527251 0.01504279 2.14930734E-02 1.94539757E-04
5.21523723 0.01494642 2.15300929E-02 1.90961058E-04
5.24501131 0.01485168 2.17557163E-02 1.98344152E-04
5.27459796 0.01475846 2.16939920E-02 1.98163800E-04
5.30766205 0.01831936 2.14791530E-02 1.84509976E-04
5.34413158 0.01817903 2.14087296E-02 2.09631023E-04
